time (s)	det(V)
62790.961163	-0.126143	
62790.963163	-0.128354	
62790.965161	-0.131515	
62790.967163	-0.133781	
62790.971161	-0.136310	
62790.973162	-0.142489	
62790.975162	-0.146792	
62790.979162	-0.149472	
62790.981163	-0.155053	
62790.983164	-0.157944	
62790.985162	-0.161320	
62790.987163	-0.165617	
62790.989162	-0.168152	
62790.991164	-0.173750	
62790.995161	-0.176977	
62790.997162	-0.184731	
62790.999163	-0.188045	
62791.001161	-0.190681	
62791.003163	-0.195844	
62791.005161	-0.199317	
62791.007162	-0.203405	
62791.009163	-0.207804	
62791.011164	-0.212264	
62791.015169	-0.216479	
62791.017168	-0.223237	
62791.019169	-0.227641	
62791.021168	-0.231085	
62791.023169	-0.234543	
62791.025169	-0.238855	
62791.027168	-0.241886	
62791.031168	-0.245140	
62791.033169	-0.251469	
62791.035171	-0.254784	
62791.037169	-0.257464	
62791.039168	-0.259909	
62791.041169	-0.262817	
62791.043168	-0.265225	
62791.045168	-0.266644	
62791.047169	-0.269835	
62791.051166	-0.270837	
62791.055166	-0.275677	
62791.057169	-0.278386	
62791.059169	-0.279710	
62791.061170	-0.280446	
62791.063170	-0.281501	
62791.065169	-0.282690	
62791.069166	-0.282449	
62791.071169	-0.284839	
62791.073168	-0.285438	
62791.077168	-0.285922	
62791.079170	-0.285425	
62791.081169	-0.285303	
62791.083168	-0.284861	
62791.085169	-0.284881	
62791.087169	-0.285021	
62791.089169	-0.284951	
62791.093173	-0.285653	
62791.095174	-0.285208	
62791.097175	-0.284611	
62791.099175	-0.284690	
62791.101174	-0.283450	
62791.103174	-0.284856	
62791.105175	-0.284130	
62791.107174	-0.284941	
62791.109175	-0.286333	
62791.111174	-0.286241	
62791.115176	-0.287291	
62791.117175	-0.287203	
62791.119176	-0.287754	
62791.121175	-0.287728	
62791.123175	-0.287715	
62791.125175	-0.289283	
62791.129172	-0.288144	
62791.131175	-0.289841	
62791.133179	-0.288106	
62791.137175	-0.287804	
62791.139177	-0.284498	
62791.141177	-0.284043	
62791.143177	-0.281354	
62791.145177	-0.279696	
62791.147177	-0.276708	
62791.151178	-0.275072	
62791.155178	-0.268708	
62791.157179	-0.261047	
62791.159180	-0.256846	
62791.161177	-0.252191	
62791.163178	-0.248372	
62791.167177	-0.242717	
62791.169178	-0.233091	
62791.171180	-0.227884	
62791.175178	-0.221082	
62791.177178	-0.207886	
62791.179178	-0.201828	
62791.181179	-0.194976	
62791.183178	-0.187171	
62791.185177	-0.180329	
62791.189179	-0.173827	
62791.193179	-0.158502	
62791.195181	-0.141853	
62791.197181	-0.134213	
62791.199182	-0.125158	
62791.201180	-0.117607	
62791.205178	-0.109231	
62791.207181	-0.094289	
62791.209180	-0.086402	
62791.213180	-0.078768	
62791.215181	-0.063427	
62791.217179	-0.055602	
62791.219179	-0.049378	
62791.221181	-0.042173	
62791.223182	-0.035075	
62791.225182	-0.030796	
62791.229181	-0.023830	
62791.231181	-0.012657	
62791.233181	-0.005894	
62791.235180	-0.000861	
62791.237181	0.004272	
62791.239181	0.010328	
62791.241180	0.013665	
62791.243181	0.018201	
62791.245179	0.021498	
62791.249181	0.025925	
62791.251183	0.034450	
62791.253182	0.038295	
62791.255183	0.042263	
62791.257182	0.046386	
62791.259183	0.048759	
62791.261183	0.053717	
62791.265181	0.056724	
62791.269182	0.064036	
62791.271183	0.071866	
62791.273184	0.075879	
62791.275183	0.079693	
62791.277183	0.083968	
62791.279184	0.088096	
62791.283180	0.092999	
62791.285183	0.101640	
62791.287182	0.106724	
62791.291182	0.112711	
62791.293182	0.124564	
62791.295186	0.130529	
62791.297187	0.137298	
62791.299186	0.144376	
62791.303183	0.151833	
62791.307183	0.165147	
62791.309186	0.179952	
62791.311186	0.188187	
62791.313186	0.195581	
62791.315187	0.203801	
62791.317184	0.212224	
62791.319187	0.219291	
62791.321184	0.226193	
62791.325185	0.233310	
62791.329185	0.247016	
62791.331185	0.261236	
62791.333187	0.269193	
62791.335185	0.274537	
62791.337185	0.280995	
62791.341183	0.287188	
62791.343186	0.297660	
62791.345186	0.303241	
62791.349185	0.307871	
62791.351185	0.317784	
62791.353185	0.321469	
62791.355185	0.325906	
62791.357185	0.329415	
62791.359184	0.331968	
62791.363185	0.333879	
62791.367187	0.338035	
62791.369187	0.341938	
62791.371188	0.342216	
62791.373187	0.343110	
62791.375189	0.342206	
62791.393121	0.336693	
62791.395122	0.330494	
62791.399122	0.326762	
62791.401122	0.328778	
62791.403121	0.327834	
62791.405122	0.325166	
62791.407122	0.322448	
62791.409123	0.319628	
62791.413124	0.316669	
62791.415126	0.309644	
62791.417125	0.304588	
62791.419125	0.299051	
62791.421127	0.293326	
62791.423125	0.289449	
62791.425125	0.284517	
62791.427124	0.281945	
62791.429124	0.279926	
62791.433127	0.276770	
62791.437128	0.274550	
62791.439128	0.271373	
62791.441128	0.268184	
62791.443128	0.264971	
62791.445129	0.262235	
62791.449126	0.258061	
62791.451127	0.251377	
62791.453128	0.248194	
62791.457127	0.246341	
62791.459128	0.242928	
62791.461128	0.242161	
62791.463128	0.240656	
62791.465128	0.238957	
62791.467128	0.237725	
62791.471128	0.235305	
62791.475128	0.229040	
62791.477128	0.223089	
62791.479127	0.219243	
62791.481127	0.215604	
62791.483128	0.214087	
62791.487127	0.210959	
62791.489128	0.205223	
62791.491128	0.201774	
62791.495128	0.198558	
62791.497130	0.192044	
62791.499134	0.189040	
62791.501135	0.185231	
62791.503136	0.180462	
62791.505136	0.176641	
62791.507137	0.172111	
62791.511145	0.167233	
62791.513146	0.159866	
62791.515146	0.156507	
62791.517147	0.153789	
62791.519145	0.150100	
62791.521146	0.145881	
62791.523146	0.141966	
62791.525147	0.137467	
62791.527146	0.133345	
62791.529146	0.128909	
62791.533146	0.124159	
62791.535146	0.117360	
62791.537146	0.114570	
62791.539146	0.111301	
62791.541146	0.106864	
62791.543147	0.104286	
62791.547144	0.100937	
62791.549146	0.094544	
62791.551145	0.091415	
62791.555147	0.087543	
62791.557146	0.083196	
62791.559146	0.081287	
62791.561146	0.078380	
62791.563147	0.076316	
62791.565146	0.074624	
62791.569156	0.072124	
62791.571155	0.067698	
62791.573156	0.066568	
62791.575159	0.064244	
62791.577159	0.062898	
62791.579158	0.062100	
62791.581159	0.059986	
62791.583161	0.058817	
62791.585166	0.057442	
62791.589165	0.055798	
62791.593166	0.052669	
62791.595166	0.051274	
62791.597166	0.050127	
62791.599166	0.049323	
62791.601166	0.048801	
62791.605165	0.047485	
62791.607166	0.044836	
62791.609166	0.043946	
62791.613166	0.043580	
62791.615165	0.042579	
62791.617167	0.043107	
62791.619165	0.041585	
62791.621166	0.040953	
62791.623166	0.041206	
62791.627165	0.038751	
62791.631165	0.037547	
62791.633166	0.037080	
62791.635166	0.036031	
62791.637166	0.035330	
62791.639166	0.034587	
62791.643164	0.033350	
62791.645165	0.031125	
62791.647164	0.029335	
62791.651164	0.029286	
62791.653165	0.028284	
62791.655165	0.027392	
62791.657166	0.026036	
62791.659164	0.024716	
62791.661165	0.024745	
62791.663166	0.022639	
62791.667172	0.021334	
62791.669174	0.019947	
62791.671174	0.020450	
62791.673174	0.020420	
62791.675181	0.018723	
62791.677177	0.017905	
62791.679179	0.017661	
62791.683178	0.017403	
62791.687177	0.015301	
62791.689181	0.014674	
62791.691178	0.013360	
62791.693180	0.013555	
62791.695180	0.012848	
62791.697179	0.011809	
62791.701177	0.011372	
62791.703180	0.009848	
62791.705180	0.009430	
62791.709179	0.008264	
62791.711179	0.008365	
62791.713180	0.007902	
62791.715179	0.007660	
62791.717180	0.007760	
62791.719179	0.007095	
62791.721182	0.006243	
62791.727180	0.004342	
62791.729180	0.005279	
62791.731180	0.005433	
62791.733180	0.005651	
62791.735180	0.005572	
62791.739179	0.005200	
62791.741179	0.004387	
62791.743180	0.003889	
62791.747178	0.004535	
62791.749180	0.005432	
62791.751180	0.005511	
62791.753180	0.004639	
62791.755178	0.005413	
62791.757180	0.004912	
62791.759181	0.003520	
62791.763180	0.003974	
62791.765182	0.002650	
62791.767181	0.004209	
62791.769181	0.003569	
62791.771183	0.003666	
62791.773182	0.003388	
62791.775183	0.002837	
62791.777186	0.002977	
62791.779187	0.002157	
62791.781187	0.001272	
62791.785188	0.002145	
62791.787188	0.001484	
62791.789187	0.002145	
62791.791187	0.001502	
62791.793188	0.001594	
62791.795187	0.001118	
62791.799185	0.001033	
62791.801187	-0.000047	
62791.803187	-0.000735	
62791.807187	-0.001132	
62791.809188	-0.001533	
62791.811187	-0.000791	
62791.813188	-0.001552	
62791.815187	-0.002157	
62791.819185	-0.002053	
62791.823186	-0.004142	
62791.825188	-0.005438	
62791.827189	-0.004557	
62791.829187	-0.004530	
62791.831187	-0.005926	
62791.833187	-0.005215	
62791.837186	-0.005548	
62791.839186	-0.007368	
62791.841186	-0.008296	
62791.845186	-0.008687	
62791.847187	-0.008510	
62791.851185	-0.008051	
62791.853188	-0.009036	
62791.855188	-0.008986	
62791.859188	-0.010054	
62791.861187	-0.011336	
62791.863187	-0.011227	
62791.865188	-0.012387	
62791.867188	-0.010915	
62791.869188	-0.011284	
62791.871188	-0.012400	
62791.873188	-0.012750	
62791.875192	-0.013108	
62791.877195	-0.013323	
62791.881199	-0.014487	
62791.883200	-0.014869	
62791.885200	-0.015097	
62791.887199	-0.014718	
62791.889200	-0.015282	
62791.891199	-0.016140	
62791.893200	-0.016742	
62791.895200	-0.015980	
62791.897198	-0.018633	
62791.899201	-0.017993	
62791.903199	-0.017701	
62791.905200	-0.018085	
62791.907201	-0.018376	
62791.909198	-0.019173	
62791.911201	-0.019468	
62791.913199	-0.020696	
62791.915200	-0.020543	
62791.919197	-0.020926	
62791.921200	-0.023171	
62791.925200	-0.023430	
62791.927199	-0.024637	
62791.929200	-0.025354	
62791.931199	-0.026659	
62791.933200	-0.027079	
62791.937197	-0.028117	
62791.939199	-0.030389	
62791.941199	-0.031801	
62791.945199	-0.033098	
62791.947198	-0.033616	
62791.949200	-0.034753	
62791.951200	-0.035165	
62791.953199	-0.036502	
62791.955199	-0.037513	
62791.959212	-0.038562	
62791.963210	-0.041606	
62791.965212	-0.043279	
62791.967213	-0.043392	
62791.969211	-0.045064	
62791.971212	-0.046278	
62791.975210	-0.047784	
62791.977212	-0.051742	
62791.979212	-0.053114	
62791.983213	-0.054510	
62791.985212	-0.056530	
62791.987214	-0.058321	
62791.989213	-0.059789	
62791.991214	-0.062421	
62791.993212	-0.063317	
62791.995217	-0.065646	
62791.999221	-0.067751	
62792.001222	-0.070775	
62792.003222	-0.072751	
62792.005221	-0.073656	
62792.007221	-0.075951	
62792.009222	-0.078129	
62792.011222	-0.079517	
62792.013221	-0.081657	
62792.015223	-0.084648	
62792.019221	-0.085384	
62792.021220	-0.090773	
62792.023223	-0.091545	
62792.025220	-0.094732	
62792.027222	-0.095972	
62792.029222	-0.098966	
62792.031221	-0.101936	
62792.035219	-0.103098	
62792.037222	-0.110006	
62792.039222	-0.112346	
62792.041222	-0.115391	
62792.043226	-0.118403	
62792.045238	-0.120345	
62792.047238	-0.122747	
62792.049236	-0.126430	
62792.051237	-0.129152	
62792.055236	-0.131829	
62792.057238	-0.139292	
62792.061238	-0.142825	
62792.063237	-0.147820	
62792.065236	-0.151768	
62792.067238	-0.153740	
62792.069238	-0.157342	
62792.073236	-0.160944	
62792.075237	-0.168416	
62792.077242	-0.171659	
62792.081238	-0.174707	
62792.083239	-0.180187	
62792.085239	-0.184254	
62792.087240	-0.187895	
62792.089239	-0.191118	
62792.091240	-0.194962	
62792.095245	-0.198193	
62792.099245	-0.206054	
62792.101245	-0.211633	
62792.103246	-0.214933	
62792.105246	-0.218439	
62792.107245	-0.221555	
62792.111243	-0.225651	
62792.113245	-0.232705	
62792.115246	-0.235681	
62792.119244	-0.237707	
62792.121246	-0.244292	
62792.123246	-0.246122	
62792.125245	-0.250671	
62792.127245	-0.253252	
62792.129246	-0.256279	
62792.133250	-0.259701	
62792.137250	-0.265640	
62792.139252	-0.270868	
62792.141250	-0.274376	
62792.143251	-0.277769	
62792.145252	-0.279682	
62792.149249	-0.283685	
62792.151251	-0.289157	
62792.153252	-0.292400	
62792.157252	-0.295158	
62792.159251	-0.300166	
62792.161251	-0.302871	
62792.163251	-0.305362	
62792.165251	-0.307828	
62792.167252	-0.309798	
62792.171250	-0.313235	
62792.175252	-0.317377	
62792.177254	-0.321372	
62792.179254	-0.323395	
62792.181253	-0.324977	
62792.183253	-0.326220	
62792.187251	-0.327051	
62792.189254	-0.329887	
62792.191253	-0.330829	
62792.195253	-0.331378	
62792.197254	-0.329826	
62792.199253	-0.328940	
62792.201252	-0.327288	
62792.203253	-0.326804	
62792.205253	-0.324007	
62792.207255	-0.322902	
62792.211256	-0.320904	
62792.213256	-0.314614	
62792.215256	-0.311260	
62792.217255	-0.305752	
62792.219255	-0.301889	
62792.221255	-0.298466	
62792.223255	-0.292868	
62792.225256	-0.288787	
62792.227255	-0.283559	
62792.229263	-0.279006	
62792.233259	-0.274120	
62792.235258	-0.261966	
62792.237258	-0.256321	
62792.239258	-0.249474	
62792.241257	-0.244015	
62792.243257	-0.238045	
62792.247256	-0.230954	
62792.249257	-0.219902	
62792.251257	-0.212877	
62792.255257	-0.206742	
62792.257258	-0.192815	
62792.259258	-0.186288	
62792.261258	-0.179107	
62792.263258	-0.172684	
62792.265256	-0.166346	
62792.269259	-0.159766	
62792.273258	-0.148147	
62792.275260	-0.135630	
62792.277260	-0.129540	
62792.279257	-0.124594	
62792.281259	-0.119408	
62792.285258	-0.114028	
62792.287260	-0.106383	
62792.289258	-0.102608	
62792.293260	-0.099006	
62792.295260	-0.091010	
62792.297260	-0.087615	
62792.299259	-0.084838	
62792.301260	-0.081852	
62792.303260	-0.078419	
62792.307258	-0.076480	
62792.311259	-0.071125	
62792.313260	-0.063115	
62792.315261	-0.060010	
62792.317259	-0.055543	
62792.319259	-0.051508	
62792.323259	-0.047745	
62792.325260	-0.038618	
62792.327258	-0.033728	
62792.331258	-0.027832	
62792.333260	-0.015716	
62792.335259	-0.009425	
62792.337260	-0.003593	
62792.339258	0.003802	
62792.341260	0.010917	
62792.343260	0.015743	
62792.347260	0.022833	
62792.349259	0.037492	
62792.351261	0.045714	
62792.353260	0.052808	
62792.355258	0.060492	
62792.357261	0.068920	
62792.359260	0.076034	
62792.361260	0.085075	
62792.363260	0.092294	
62792.367262	0.099623	
62792.369262	0.117190	
62792.371264	0.125904	
62792.373265	0.135250	
62792.375266	0.143051	
62792.377265	0.152149	
62792.379264	0.160187	
62792.381264	0.169093	
62792.383264	0.177296	
62792.387264	0.184978	
62792.389264	0.200959	
62792.391265	0.207762	
62792.393264	0.216000	
62792.395264	0.222937	
62792.397264	0.229015	
62792.399265	0.235075	
62792.403262	0.241515	
62792.405265	0.250028	
62792.407263	0.253744	
62792.409265	0.257129	
62792.411268	0.261399	
62792.413268	0.263972	
62792.415268	0.267513	
62792.417268	0.269992	
62792.419268	0.270378	
62792.423265	0.272160	
62792.427266	0.272834	
62792.429269	0.273300	
62792.431268	0.273603	
62792.433268	0.274331	
62792.435268	0.273165	
62792.437268	0.272202	
62792.439268	0.271474	
62792.441269	0.269888	
62792.443270	0.268337	
62792.447269	0.267113	
62792.449268	0.264809	
62792.451268	0.263282	
62792.453268	0.262570	
62792.455272	0.261307	
62792.457278	0.259658	
62792.459278	0.258214	
62792.461278	0.257155	
62792.463278	0.255862	
62792.467276	0.254766	
62792.469277	0.254092	
62792.471278	0.253363	
62792.473277	0.254329	
62792.475278	0.252960	
62792.477278	0.254005	
62792.493212	0.268228	
62792.495214	0.267357	
62792.499212	0.265281	
62792.503212	0.271550	
62792.505214	0.273063	
62792.507214	0.273677	
62792.511212	0.272852	
62792.515213	0.272551	
62792.517213	0.269866	
62792.519214	0.265998	
62792.521215	0.262477	
62792.523214	0.259490	
62792.525214	0.255840	
62792.529212	0.254844	
62792.531214	0.249371	
62792.533213	0.248063	
62792.537218	0.246353	
62792.539220	0.242164	
62792.541220	0.238773	
62792.543218	0.234350	
62792.545220	0.230478	
62792.547220	0.225573	
62792.551221	0.220266	
62792.555223	0.211222	
62792.557221	0.203585	
62792.559222	0.199319	
62792.561221	0.196549	
62792.563222	0.192963	
62792.567220	0.189094	
62792.569222	0.180571	
62792.571221	0.176860	
62792.575221	0.172078	
62792.577222	0.163650	
62792.579225	0.160161	
62792.581221	0.155584	
62792.583222	0.152477	
62792.585221	0.148996	
62792.587221	0.145616	
62792.591222	0.142324	
62792.593222	0.136468	
62792.595222	0.134284	
62792.597222	0.131334	
62792.599223	0.128390	
62792.601221	0.125740	
62792.603222	0.122253	
62792.605221	0.120103	
62792.607222	0.116928	
62792.611222	0.113764	
62792.613221	0.110114	
62792.615223	0.108602	
62792.617223	0.107328	
62792.619222	0.105394	
62792.621225	0.103310	
62792.623226	0.102508	
62792.625223	0.099706	
62792.627223	0.097207	
62792.629224	0.096182	
62792.633222	0.093711	
62792.635224	0.090854	
62792.637224	0.089681	
62792.639224	0.089234	
62792.641225	0.087286	
62792.643224	0.085883	
62792.647222	0.085039	
62792.649224	0.081656	
62792.651224	0.080167	
62792.655224	0.078257	
62792.657224	0.075657	
62792.659223	0.073872	
62792.661223	0.073140	
62792.663224	0.071590	
62792.665225	0.070027	
62792.669223	0.069187	
62792.671224	0.064965	
62792.673223	0.064070	
62792.675223	0.062625	
62792.677224	0.061029	
62792.679224	0.060517	
62792.681223	0.057977	
62792.683223	0.057301	
62792.685225	0.055752	
62792.689224	0.053066	
62792.693224	0.050605	
62792.695224	0.048774	
62792.697224	0.047060	
62792.699224	0.045714	
62792.701223	0.045043	
62792.705222	0.042792	
62792.707223	0.039792	
62792.709229	0.037913	
62792.713225	0.037716	
62792.715226	0.035692	
62792.717225	0.035080	
62792.719226	0.034195	
62792.721227	0.032040	
62792.723226	0.031998	
62792.727229	0.029593	
62792.731229	0.027498	
62792.733230	0.026846	
62792.735229	0.026778	
62792.737229	0.025518	
62792.739229	0.024949	
62792.743227	0.023719	
62792.745229	0.022246	
62792.747229	0.020867	
62792.751229	0.020579	
62792.753229	0.020175	
62792.755229	0.019733	
62792.757229	0.019294	
62792.759229	0.017785	
62792.761230	0.018071	
62792.763229	0.017356	
62792.767229	0.016291	
62792.769232	0.015285	
62792.771231	0.015592	
62792.773231	0.015821	
62792.775230	0.014330	
62792.777232	0.014285	
62792.779230	0.013867	
62792.781232	0.013258	
62792.783231	0.012470	
62792.787231	0.011904	
62792.789232	0.011152	
62792.791231	0.011104	
62792.793231	0.010345	
62792.795230	0.010378	
62792.797231	0.009681	
62792.799231	0.009905	
62792.803229	0.009912	
62792.807229	0.007031	
62792.809231	0.005629	
62792.811231	0.006651	
62792.813230	0.006255	
62792.815231	0.005498	
62792.817231	0.005394	
62792.821229	0.004934	
62792.823231	0.002656	
62792.825231	0.001709	
62792.829231	0.001098	
62792.831231	0.000602	
62792.833231	0.000948	
62792.835231	-0.000438	
62792.837231	-0.001122	
62792.839230	-0.001048	
62792.841231	-0.002651	
62792.845239	-0.003968	
62792.847239	-0.004828	
62792.849241	-0.004768	
62792.851239	-0.004944	
62792.853239	-0.005334	
62792.855240	-0.005916	
62792.857239	-0.006676	
62792.859239	-0.007043	
62792.861238	-0.007560	
62792.865238	-0.008924	
62792.867239	-0.009924	
62792.869239	-0.009568	
62792.871238	-0.010654	
62792.873239	-0.010434	
62792.875239	-0.011173	
62792.877240	-0.012364	
62792.881237	-0.011867	
62792.883239	-0.014566	
62792.885239	-0.014475	
62792.889238	-0.015546	
62792.891239	-0.016375	
62792.893239	-0.018452	
62792.895239	-0.017255	
62792.897239	-0.017726	
62792.899238	-0.018223	
62792.901243	-0.019334	
62792.905237	-0.020358	
62792.907239	-0.021988	
62792.909239	-0.021892	
62792.911239	-0.022552	
62792.913239	-0.023166	
62792.915239	-0.024314	
62792.917239	-0.023916	
62792.921238	-0.024579	
62792.925237	-0.027161	
62792.927239	-0.029049	
62792.929239	-0.029221	
62792.931241	-0.030237	
62792.933239	-0.030365	
62792.935239	-0.032206	
62792.939238	-0.033020	
62792.941239	-0.036013	
62792.943238	-0.037420	
62792.947239	-0.037717	
62792.949239	-0.038978	
62792.951240	-0.040237	
62792.953239	-0.041876	
62792.955239	-0.042718	
62792.957238	-0.043762	
62792.959242	-0.046093	
62792.963244	-0.047874	
62792.965243	-0.050282	
62792.967243	-0.050195	
62792.969243	-0.051719	
62792.971244	-0.052711	
62792.973243	-0.053847	
62792.975244	-0.055715	
62792.977242	-0.056980	
62792.979243	-0.058880	
62792.981246	-0.060923	
62792.985248	-0.062511	
62792.987249	-0.064358	
62792.989249	-0.065244	
62792.991249	-0.067049	
62792.993250	-0.068925	
62792.995249	-0.069862	
62792.999247	-0.071189	
62793.003247	-0.074726	
62793.005252	-0.078499	
62793.007253	-0.079526	
62793.009253	-0.082153	
62793.011253	-0.082340	
62793.013253	-0.084942	
62793.015254	-0.086715	
62793.017254	-0.087818	
62793.019255	-0.090978	
62793.023261	-0.092613	
62793.025260	-0.097461	
62793.027261	-0.098500	
62793.029261	-0.099890	
